_Composite_Pipe_Results_
	Input parameters:
Hot side temperature:
T1 =	110.000	deg C
Cold side temperature:
T2 =	30.000	deg C

Pipe length:
L =	1.000	m

Inner radius:
r_1 =	0.050	m

Thermal conductivity of layer 1:
k_1 =	400.000	W/m.K
Outer radius of layer 1:
r_2 =	0.060	m

Layer 1 resistance to heat transfer:
R_2 =	0.000	K/W

Thermal conductivity of layer 2:
k_2 =	75.000	W/m.K
Outer radius of layer 2:
r_3 =	0.090	m

Layer 2 resistance to heat transfer:
R_3 =	0.001	K/W

Thermal conductivity of layer 3:
k_3 =	0.500	W/m.K
Outer radius of layer 3:
r_4 =	0.150	m

Layer 3 resistance to heat transfer:
R_4 =	0.163	K/W

	Intermediate parameters:
Rate of heat transfer:
Q =	489.195	W

	Output parameters:
k (W/m.K)	h (W/m2.K)	r (mm)	T (deg C)
0.000	0.000	50.00000	110.00000
400.000		50.04000	109.99984
		50.08000	109.99969
		50.12000	109.99953
		50.16000	109.99938
		50.20000	109.99922
		50.24000	109.99907
		50.28000	109.99891
		50.32000	109.99876
		50.36000	109.99860
		50.40000	109.99845
		50.44000	109.99829
		50.48000	109.99814
		50.52000	109.99799
		50.56000	109.99783
		50.60000	109.99768
		50.64000	109.99752
		50.68000	109.99737
		50.72000	109.99722
		50.76000	109.99706
		50.80000	109.99691
		50.84000	109.99676
		50.88000	109.99660
		50.92000	109.99645
		50.96000	109.99630
		51.00000	109.99615
		51.04000	109.99599
		51.08000	109.99584
		51.12000	109.99569
		51.16000	109.99554
		51.20000	109.99538
		51.24000	109.99523
		51.28000	109.99508
		51.32000	109.99493
		51.36000	109.99478
		51.40000	109.99462
		51.44000	109.99447
		51.48000	109.99432
		51.52000	109.99417
		51.56000	109.99402
		51.60000	109.99387
		51.64000	109.99372
		51.68000	109.99357
		51.72000	109.99342
		51.76000	109.99327
		51.80000	109.99312
		51.84000	109.99297
		51.88000	109.99282
		51.92000	109.99267
		51.96000	109.99252
		52.00000	109.99237
		52.04000	109.99222
		52.08000	109.99207
		52.12000	109.99192
		52.16000	109.99177
		52.20000	109.99162
		52.24000	109.99147
		52.28000	109.99132
		52.32000	109.99117
		52.36000	109.99102
		52.40000	109.99087
		52.44000	109.99073
		52.48000	109.99058
		52.52000	109.99043
		52.56000	109.99028
		52.60000	109.99013
		52.64000	109.98998
		52.68000	109.98984
		52.72000	109.98969
		52.76000	109.98954
		52.80000	109.98939
		52.84000	109.98925
		52.88000	109.98910
		52.92000	109.98895
		52.96000	109.98881
		53.00000	109.98866
		53.04000	109.98851
		53.08000	109.98836
		53.12000	109.98822
		53.16000	109.98807
		53.20000	109.98793
		53.24000	109.98778
		53.28000	109.98763
		53.32000	109.98749
		53.36000	109.98734
		53.40000	109.98719
		53.44000	109.98705
		53.48000	109.98690
		53.52000	109.98676
		53.56000	109.98661
		53.60000	109.98647
		53.64000	109.98632
		53.68000	109.98618
		53.72000	109.98603
		53.76000	109.98589
		53.80000	109.98574
		53.84000	109.98560
		53.88000	109.98545
		53.92000	109.98531
		53.96000	109.98516
		54.00000	109.98502
		54.04000	109.98488
		54.08000	109.98473
		54.12000	109.98459
		54.16000	109.98444
		54.20000	109.98430
		54.24000	109.98416
		54.28000	109.98401
		54.32000	109.98387
		54.36000	109.98373
		54.40000	109.98358
		54.44000	109.98344
		54.48000	109.98330
		54.52000	109.98315
		54.56000	109.98301
		54.60000	109.98287
		54.64000	109.98273
		54.68000	109.98258
		54.72000	109.98244
		54.76000	109.98230
		54.80000	109.98216
		54.84000	109.98202
		54.88000	109.98187
		54.92000	109.98173
		54.96000	109.98159
		55.00000	109.98145
		55.04000	109.98131
		55.08000	109.98117
		55.12000	109.98102
		55.16000	109.98088
		55.20000	109.98074
		55.24000	109.98060
		55.28000	109.98046
		55.32000	109.98032
		55.36000	109.98018
		55.40000	109.98004
		55.44000	109.97990
		55.48000	109.97976
		55.52000	109.97962
		55.56000	109.97948
		55.60000	109.97934
		55.64000	109.97920
		55.68000	109.97906
		55.72000	109.97892
		55.76000	109.97878
		55.80000	109.97864
		55.84000	109.97850
		55.88000	109.97836
		55.92000	109.97822
		55.96000	109.97808
		56.00000	109.97794
		56.04000	109.97780
		56.08000	109.97766
		56.12000	109.97752
		56.16000	109.97739
		56.20000	109.97725
		56.24000	109.97711
		56.28000	109.97697
		56.32000	109.97683
		56.36000	109.97669
		56.40000	109.97656
		56.44000	109.97642
		56.48000	109.97628
		56.52000	109.97614
		56.56000	109.97600
		56.60000	109.97587
		56.64000	109.97573
		56.68000	109.97559
		56.72000	109.97545
		56.76000	109.97532
		56.80000	109.97518
		56.84000	109.97504
		56.88000	109.97491
		56.92000	109.97477
		56.96000	109.97463
		57.00000	109.97450
		57.04000	109.97436
		57.08000	109.97422
		57.12000	109.97409
		57.16000	109.97395
		57.20000	109.97381
		57.24000	109.97368
		57.28000	109.97354
		57.32000	109.97341
		57.36000	109.97327
		57.40000	109.97313
		57.44000	109.97300
		57.48000	109.97286
		57.52000	109.97273
		57.56000	109.97259
		57.60000	109.97246
		57.64000	109.97232
		57.68000	109.97219
		57.72000	109.97205
		57.76000	109.97192
		57.80000	109.97178
		57.84000	109.97165
		57.88000	109.97151
		57.92000	109.97138
		57.96000	109.97125
		58.00000	109.97111
		58.04000	109.97098
		58.08000	109.97084
		58.12000	109.97071
		58.16000	109.97057
		58.20000	109.97044
		58.24000	109.97031
		58.28000	109.97017
		58.32000	109.97004
		58.36000	109.96991
		58.40000	109.96977
		58.44000	109.96964
		58.48000	109.96951
		58.52000	109.96937
		58.56000	109.96924
		58.60000	109.96911
		58.64000	109.96897
		58.68000	109.96884
		58.72000	109.96871
		58.76000	109.96858
		58.80000	109.96844
		58.84000	109.96831
		58.88000	109.96818
		58.92000	109.96805
		58.96000	109.96792
		59.00000	109.96778
		59.04000	109.96765
		59.08000	109.96752
		59.12000	109.96739
		59.16000	109.96726
		59.20000	109.96712
		59.24000	109.96699
		59.28000	109.96686
		59.32000	109.96673
		59.36000	109.96660
		59.40000	109.96647
		59.44000	109.96634
		59.48000	109.96621
		59.52000	109.96608
		59.56000	109.96594
		59.60000	109.96581
		59.64000	109.96568
		59.68000	109.96555
		59.72000	109.96542
		59.76000	109.96529
		59.80000	109.96516
		59.84000	109.96503
		59.88000	109.96490
		59.92000	109.96477
		59.96000	109.96464
		60.00000	109.96451
75.000		60.12000	109.96244
		60.24000	109.96037
		60.36000	109.95830
		60.48000	109.95624
		60.60000	109.95418
		60.72000	109.95213
		60.84000	109.95008
		60.96000	109.94803
		61.08000	109.94599
		61.20000	109.94395
		61.32000	109.94192
		61.44000	109.93989
		61.56000	109.93787
		61.68000	109.93584
		61.80000	109.93383
		61.92000	109.93181
		62.04000	109.92980
		62.16000	109.92780
		62.28000	109.92580
		62.40000	109.92380
		62.52000	109.92180
		62.64000	109.91981
		62.76000	109.91783
		62.88000	109.91584
		63.00000	109.91386
		63.12000	109.91189
		63.24000	109.90992
		63.36000	109.90795
		63.48000	109.90598
		63.60000	109.90402
		63.72000	109.90207
		63.84000	109.90011
		63.96000	109.89816
		64.08000	109.89622
		64.20000	109.89428
		64.32000	109.89234
		64.44000	109.89040
		64.56000	109.88847
		64.68000	109.88654
		64.80000	109.88462
		64.92000	109.88270
		65.04000	109.88078
		65.16000	109.87887
		65.28000	109.87696
		65.40000	109.87505
		65.52000	109.87315
		65.64000	109.87125
		65.76000	109.86935
		65.88000	109.86746
		66.00000	109.86557
		66.12000	109.86368
		66.24000	109.86180
		66.36000	109.85992
		66.48000	109.85805
		66.60000	109.85618
		66.72000	109.85431
		66.84000	109.85244
		66.96000	109.85058
		67.08000	109.84872
		67.20000	109.84686
		67.32000	109.84501
		67.44000	109.84316
		67.56000	109.84132
		67.68000	109.83948
		67.80000	109.83764
		67.92000	109.83580
		68.04000	109.83397
		68.16000	109.83214
		68.28000	109.83031
		68.40000	109.82849
		68.52000	109.82667
		68.64000	109.82485
		68.76000	109.82304
		68.88000	109.82123
		69.00000	109.81942
		69.12000	109.81762
		69.24000	109.81582
		69.36000	109.81402
		69.48000	109.81223
		69.60000	109.81044
		69.72000	109.80865
		69.84000	109.80686
		69.96000	109.80508
		70.08000	109.80330
		70.20000	109.80153
		70.32000	109.79975
		70.44000	109.79798
		70.56000	109.79622
		70.68000	109.79445
		70.80000	109.79269
		70.92000	109.79093
		71.04000	109.78918
		71.16000	109.78743
		71.28000	109.78568
		71.40000	109.78393
		71.52000	109.78219
		71.64000	109.78045
		71.76000	109.77871
		71.88000	109.77697
		72.00000	109.77524
		72.12000	109.77351
		72.24000	109.77179
		72.36000	109.77007
		72.48000	109.76835
		72.60000	109.76663
		72.72000	109.76491
		72.84000	109.76320
		72.96000	109.76149
		73.08000	109.75979
		73.20000	109.75808
		73.32000	109.75638
		73.44000	109.75469
		73.56000	109.75299
		73.68000	109.75130
		73.80000	109.74961
		73.92000	109.74792
		74.04000	109.74624
		74.16000	109.74456
		74.28000	109.74288
		74.40000	109.74120
		74.52000	109.73953
		74.64000	109.73786
		74.76000	109.73619
		74.88000	109.73453
		75.00000	109.73287
		75.12000	109.73121
		75.24000	109.72955
		75.36000	109.72789
		75.48000	109.72624
		75.60000	109.72459
		75.72000	109.72295
		75.84000	109.72130
		75.96000	109.71966
		76.08000	109.71802
		76.20000	109.71639
		76.32000	109.71475
		76.44000	109.71312
		76.56000	109.71149
		76.68000	109.70987
		76.80000	109.70825
		76.92000	109.70662
		77.04000	109.70501
		77.16000	109.70339
		77.28000	109.70178
		77.40000	109.70017
		77.52000	109.69856
		77.64000	109.69695
		77.76000	109.69535
		77.88000	109.69375
		78.00000	109.69215
		78.12000	109.69055
		78.24000	109.68896
		78.36000	109.68737
		78.48000	109.68578
		78.60000	109.68420
		78.72000	109.68261
		78.84000	109.68103
		78.96000	109.67945
		79.08000	109.67788
		79.20000	109.67630
		79.32000	109.67473
		79.44000	109.67316
		79.56000	109.67159
		79.68000	109.67003
		79.80000	109.66847
		79.92000	109.66691
		80.04000	109.66535
		80.16000	109.66379
		80.28000	109.66224
		80.40000	109.66069
		80.52000	109.65914
		80.64000	109.65760
		80.76000	109.65605
		80.88000	109.65451
		81.00000	109.65297
		81.12000	109.65144
		81.24000	109.64990
		81.36000	109.64837
		81.48000	109.64684
		81.60000	109.64531
		81.72000	109.64379
		81.84000	109.64226
		81.96000	109.64074
		82.08000	109.63922
		82.20000	109.63771
		82.32000	109.63619
		82.44000	109.63468
		82.56000	109.63317
		82.68000	109.63166
		82.80000	109.63016
		82.92000	109.62865
		83.04000	109.62715
		83.16000	109.62565
		83.28000	109.62415
		83.40000	109.62266
		83.52000	109.62117
		83.64000	109.61968
		83.76000	109.61819
		83.88000	109.61670
		84.00000	109.61522
		84.12000	109.61374
		84.24000	109.61226
		84.36000	109.61078
		84.48000	109.60930
		84.60000	109.60783
		84.72000	109.60636
		84.84000	109.60489
		84.96000	109.60342
		85.08000	109.60196
		85.20000	109.60049
		85.32000	109.59903
		85.44000	109.59757
		85.56000	109.59612
		85.68000	109.59466
		85.80000	109.59321
		85.92000	109.59176
		86.04000	109.59031
		86.16000	109.58886
		86.28000	109.58742
		86.40000	109.58597
		86.52000	109.58453
		86.64000	109.58309
		86.76000	109.58166
		86.88000	109.58022
		87.00000	109.57879
		87.12000	109.57736
		87.24000	109.57593
		87.36000	109.57450
		87.48000	109.57308
		87.60000	109.57166
		87.72000	109.57023
		87.84000	109.56882
		87.96000	109.56740
		88.08000	109.56598
		88.20000	109.56457
		88.32000	109.56316
		88.44000	109.56175
		88.56000	109.56034
		88.68000	109.55894
		88.80000	109.55753
		88.92000	109.55613
		89.04000	109.55473
		89.16000	109.55333
		89.28000	109.55193
		89.40000	109.55054
		89.52000	109.54915
		89.64000	109.54776
		89.76000	109.54637
		89.88000	109.54498
		90.00000	109.54360
0.500		90.24000	109.12891
		90.48000	108.71532
		90.72000	108.30283
		90.96000	107.89142
		91.20000	107.48111
		91.44000	107.07187
		91.68000	106.66370
		91.92000	106.25660
		92.16000	105.85056
		92.40000	105.44558
		92.64000	105.04165
		92.88000	104.63876
		93.12000	104.23691
		93.36000	103.83610
		93.60000	103.43631
		93.84000	103.03755
		94.08000	102.63981
		94.32000	102.24308
		94.56000	101.84736
		94.80000	101.45265
		95.04000	101.05893
		95.28000	100.66620
		95.52000	100.27446
		95.76000	99.88371
		96.00000	99.49393
		96.24000	99.10513
		96.48000	98.71729
		96.72000	98.33042
		96.96000	97.94451
		97.20000	97.55955
		97.44000	97.17554
		97.68000	96.79248
		97.92000	96.41035
		98.16000	96.02916
		98.40000	95.64890
		98.64000	95.26957
		98.88000	94.89116
		99.12000	94.51367
		99.36000	94.13709
		99.60000	93.76142
		99.84000	93.38665
		100.08000	93.01278
		100.32000	92.63981
		100.56000	92.26773
		100.80000	91.89654
		101.04000	91.52622
		101.28000	91.15679
		101.52000	90.78823
		101.76000	90.42055
		102.00000	90.05372
		102.24000	89.68776
		102.48000	89.32266
		102.72000	88.95841
		102.96000	88.59502
		103.20000	88.23247
		103.44000	87.87076
		103.68000	87.50989
		103.92000	87.14985
		104.16000	86.79064
		104.40000	86.43226
		104.64000	86.07471
		104.88000	85.71797
		105.12000	85.36205
		105.36000	85.00694
		105.60000	84.65264
		105.84000	84.29914
		106.08000	83.94644
		106.32000	83.59454
		106.56000	83.24343
		106.80000	82.89312
		107.04000	82.54359
		107.28000	82.19484
		107.52000	81.84687
		107.76000	81.49968
		108.00000	81.15326
		108.24000	80.80761
		108.48000	80.46272
		108.72000	80.11860
		108.96000	79.77523
		109.20000	79.43262
		109.44000	79.09077
		109.68000	78.74966
		109.92000	78.40930
		110.16000	78.06968
		110.40000	77.73080
		110.64000	77.39265
		110.88000	77.05524
		111.12000	76.71856
		111.36000	76.38260
		111.60000	76.04737
		111.84000	75.71285
		112.08000	75.37906
		112.32000	75.04598
		112.56000	74.71360
		112.80000	74.38194
		113.04000	74.05098
		113.28000	73.72073
		113.52000	73.39117
		113.76000	73.06231
		114.00000	72.73414
		114.24000	72.40666
		114.48000	72.07987
		114.72000	71.75376
		114.96000	71.42834
		115.20000	71.10359
		115.44000	70.77952
		115.68000	70.45613
		115.92000	70.13340
		116.16000	69.81134
		116.40000	69.48994
		116.64000	69.16921
		116.88000	68.84914
		117.12000	68.52972
		117.36000	68.21096
		117.60000	67.89285
		117.84000	67.57538
		118.08000	67.25856
		118.32000	66.94239
		118.56000	66.62686
		118.80000	66.31196
		119.04000	65.99770
		119.28000	65.68407
		119.52000	65.37108
		119.76000	65.05871
		120.00000	64.74697
		120.24000	64.43585
		120.48000	64.12535
		120.72000	63.81546
		120.96000	63.50620
		121.20000	63.19754
		121.44000	62.88950
		121.68000	62.58206
		121.92000	62.27524
		122.16000	61.96901
		122.40000	61.66339
		122.64000	61.35836
		122.88000	61.05393
		123.12000	60.75009
		123.36000	60.44685
		123.60000	60.14419
		123.84000	59.84213
		124.08000	59.54064
		124.32000	59.23974
		124.56000	58.93942
		124.80000	58.63968
		125.04000	58.34052
		125.28000	58.04193
		125.52000	57.74390
		125.76000	57.44645
		126.00000	57.14957
		126.24000	56.85325
		126.48000	56.55749
		126.72000	56.26230
		126.96000	55.96766
		127.20000	55.67358
		127.44000	55.38005
		127.68000	55.08708
		127.92000	54.79465
		128.16000	54.50278
		128.40000	54.21145
		128.64000	53.92066
		128.88000	53.63042
		129.12000	53.34072
		129.36000	53.05155
		129.60000	52.76292
		129.84000	52.47482
		130.08000	52.18726
		130.32000	51.90023
		130.56000	51.61372
		130.80000	51.32774
		131.04000	51.04229
		131.28000	50.75735
		131.52000	50.47294
		131.76000	50.18905
		132.00000	49.90567
		132.24000	49.62281
		132.48000	49.34046
		132.72000	49.05862
		132.96000	48.77729
		133.20000	48.49647
		133.44000	48.21615
		133.68000	47.93634
		133.92000	47.65703
		134.16000	47.37822
		134.40000	47.09990
		134.64000	46.82209
		134.88000	46.54477
		135.12000	46.26794
		135.36000	45.99160
		135.60000	45.71576
		135.84000	45.44040
		136.08000	45.16552
		136.32000	44.89113
		136.56000	44.61723
		136.80000	44.34380
		137.04000	44.07086
		137.28000	43.79839
		137.52000	43.52639
		137.76000	43.25488
		138.00000	42.98383
		138.24000	42.71326
		138.48000	42.44315
		138.72000	42.17351
		138.96000	41.90434
		139.20000	41.63563
		139.44000	41.36739
		139.68000	41.09961
		139.92000	40.83228
		140.16000	40.56542
		140.40000	40.29901
		140.64000	40.03306
		140.88000	39.76756
		141.12000	39.50251
		141.36000	39.23791
		141.60000	38.97376
		141.84000	38.71006
		142.08000	38.44680
		142.32000	38.18399
		142.56000	37.92162
		142.80000	37.65970
		143.04000	37.39821
		143.28000	37.13716
		143.52000	36.87655
		143.76000	36.61637
		144.00000	36.35663
		144.24000	36.09732
		144.48000	35.83844
		144.72000	35.57999
		144.96000	35.32197
		145.20000	35.06437
		145.44000	34.80720
		145.68000	34.55046
		145.92000	34.29414
		146.16000	34.03824
		146.40000	33.78275
		146.64000	33.52769
		146.88000	33.27305
		147.12000	33.01882
		147.36000	32.76500
		147.60000	32.51160
		147.84000	32.25861
		148.08000	32.00603
		148.32000	31.75386
		148.56000	31.50209
		148.80000	31.25074
		149.04000	30.99978
		149.28000	30.74924
		149.52000	30.49909
		149.76000	30.24934
		150.00000	30.00000
